<?xml version="1.0" encoding="UTF-8"?>
<xrdMeasurements xmlns="http://www.xrdml.com/XRDMeasurement/1.5" xmlns:xsi="http://www.w3.org/2001/XMLSchema-instance" xsi:schemaLocation="http://www.xrdml.com/XRDMeasurement/1.5 http://www.xrdml.com/XRDMeasurement/1.5/XRDMeasurement.xsd" status="Completed">
	<comment>
		<entry>Configuration=XYZ Stage, Owner=User-1, Creation date=02-Nov-17 2:08:05 PM</entry>
		<entry>Goniometer=PW3050/60 (Theta/Theta); Minimum step size 2Theta:0.001; Minimum step size Omega:0.001</entry>
		<entry>Sample stage=Programmable x,y,z stage; Minimum step size X:0.01; Minimum step size Y:0.01; Minimum step size Z:0.001</entry>
		<entry>Diffractometer system=XPERT-PRO</entry>
		<entry>Measurement program=D:\user\Pepe\program_files\GIXRD_Cu-Ba_Se_3deg.xrdmp, Identifier={7CB4D048-8CED-4E11-8FC2-E8BA64A6B0D0}</entry>
		<entry>Batch program=D:\user\Pepe\program_files\batch_GIXRD_Cu-Ba_Se.xrdmp, Identifier={A0B2963C-A502-49AE-9F3F-60708DD09364}</entry>
	</comment>
	<sample type="To be analyzed">
		<id></id>
		<name></name>
		<preparedBy></preparedBy>
	</sample>
	<xrdMeasurement measurementType="Scan" status="Completed" sampleMode="Reflection">
		<comment>
			<entry>PHD Lower Level = 5.63 (keV), PHD Upper Level = 12.87 (keV)</entry>
		</comment>
		<usedWavelength intended="K-Alpha">
			<kAlpha1 unit="Angstrom">1.5405980</kAlpha1>
			<kAlpha2 unit="Angstrom">1.5444260</kAlpha2>
			<kBeta unit="Angstrom">1.3922500</kBeta>
			<ratioKAlpha2KAlpha1>0.5000</ratioKAlpha2KAlpha1>
		</usedWavelength>
		<incidentBeamPath>
			<radius unit="mm">240.00</radius>
			<xRayTube id="1010048" name="Empyrean Cu LFF HR (9430 033 7310x) DK425163">
				<tension unit="kV">40</tension>
				<current unit="mA">40</current>
				<anodeMaterial>Cu</anodeMaterial>
				<focus type="Line">
					<length unit="mm">12.0</length>
					<width unit="mm">0.4</width>
					<takeOffAngle unit="deg">4.4</takeOffAngle>
				</focus>
			</xRayTube>
			<xRayMirror id="27020001" name="Inc. Parallel beam X-ray mirror for Cu radiation" hybrid="false">
				<crystal type="Graded" shape="Parabolic">W/Si</crystal>
				<acceptanceAngle unit="deg">0.800</acceptanceAngle>
				<length unit="mm">55.3</length>
			</xRayMirror>
			<sollerSlit id="21010002" name="Soller slits 0.04 rad.">
				<opening unit="rad">0.0400</opening>
			</sollerSlit>
			<mask id="22030007" name="Fixed mask 2 mm">
				<distanceToSample unit="mm">140.00</distanceToSample>
				<width unit="mm">2.00</width>
			</mask>
			<divergenceSlit id="22010009" name="Fixed slit 1/16°" xsi:type="fixedDivergenceSlitType">
				<distanceToSample unit="mm">140.00</distanceToSample>
				<height unit="mm">0.10</height>
			</divergenceSlit>
		</incidentBeamPath>
		<sampleOffset>
			<position axis="Omega" unit="deg">0.043</position>
		</sampleOffset>
		<diffractedBeamPath>
			<radius unit="mm">240.00</radius>
			<parallelPlateCollimator id="25010002" name="Parallel plate collimator 0.18°">
				<opening unit="deg">0.18</opening>
			</parallelPlateCollimator>
			<detector id="7010011" name="Proportional detector Xe" xsi:type="pointDetectorType">
				<phd>
					<lowerLevel unit="%">35.0</lowerLevel>
					<upperLevel unit="%">80.0</upperLevel>
				</phd>
			</detector>
		</diffractedBeamPath>
		<scan appendNumber="0" mode="Continuous" scanAxis="2Theta" status="Completed">
			<header>
				<startTimeStamp>2020-10-31T14:44:27+01:00</startTimeStamp>
				<endTimeStamp>2020-10-31T18:07:37+01:00</endTimeStamp>
				<author>
					<name>cnu_xlab</name>
				</author>
				<source>
					<applicationSoftware version="5.2a">Data Collector</applicationSoftware>
					<instrumentControlSoftware version="2.2B 20140619">XPERT-PRO</instrumentControlSoftware>
					<instrumentID>0000000011035964</instrumentID>
				</source>
			</header>
			<dataPoints>
				<positions axis="2Theta" unit="deg">
					<startPosition>15.020</startPosition>
					<endPosition>79.980</endPosition>
				</positions>
				<positions axis="Omega" unit="deg">
					<commonPosition>3.000</commonPosition>
				</positions>
				<positions axis="X" unit="mm">
					<commonPosition>-21.00</commonPosition>
				</positions>
				<positions axis="Y" unit="mm">
					<commonPosition>14.31</commonPosition>
				</positions>
				<positions axis="Z" unit="mm">
					<commonPosition>8.309</commonPosition>
				</positions>
				<commonCountingTime unit="seconds">7.50</commonCountingTime>
				<intensities unit="counts">406 422 412 412 371 404 426 409 410 422 419 368 424 426 412 427 379 458 462 409 469 421 434 418 437 447 466 474 394 506 469 455 464 472 488 469 471 460 468 483 459 503 532 500 524 499 500 507 479 497 470 503 481 492 546 486 501 540 519 537 508 536 522 513 537 568 562 561 542 520 542 579 509 543 569 560 564 617 593 557 585 583 567 567 616 600 624 617 597 666 588 617 629 624 660 713 662 649 695 727 642 696 651 654 662 686 695 724 681 726 715 720 722 658 814 722 741 763 746 712 720 725 765 745 746 752 769 770 784 739 831 800 772 780 835 741 780 778 769 835 840 799 852 820 789 770 826 822 839 842 889 820 784 848 842 863 834 845 799 770 895 847 803 814 827 843 791 790 812 823 819 815 801 774 813 816 824 791 825 763 753 776 770 721 747 784 790 805 757 781 730 742 698 787 761 781 726 782 687 710 737 687 680 725 703 630 665 694 672 700 714 703 674 678 676 646 666 675 659 658 620 673 640 685 666 671 628 643 665 635 624 611 623 654 611 544 655 609 610 567 593 567 582 583 597 587 623 582 603 601 576 571 595 589 586 556 573 598 520 546 583 621 623 601 670 660 676 660 682 702 647 680 656 661 655 620 584 602 575 568 534 577 548 543 545 522 525 552 549 548 518 512 497 518 488 480 533 512 512 542 558 518 588 589 588 559 540 576 584 562 555 601 584 608 599 594 516 522 508 508 475 422 408 455 441 462 476 473 453 509 468 459 496 502 489 452 458 454 475 401 423 454 450 466 433 424 452 434 463 476 517 526 598 598 700 704 786 781 840 870 791 796 673 625 536 501 437 448 464 444 493 465 429 451 437 410 462 418 408 418 421 423 399 421 402 424 473 472 434 523 461 458 453 453 493 472 471 454 447 490 440 446 470 442 431 421 417 407 380 381 383 431 413 413 428 432 415 375 395 403 406 395 437 396 451 453 471 451 480 447 539 500 468 480 533 555 549 587 629 617 613 566 560 508 461 447 367 393 387 398 333 363 361 374 408 405 355 366 388 330 371 352 342 350 327 359 356 340 344 346 407 423 472 468 547 631 721 666 707 635 607 579 512 513 515 505 595 673 694 781 734 716 608 541 452 459 406 379 388 351 339 379 314 324 315 326 339 313 358 329 343 351 339 347 343 338 350 333 297 296 296 311 308 304 345 333 288 331 353 363 330 387 333 355 340 330 339 296 305 288 265 295 262 293 256 263 306 253 271 249 273 256 297 277 306 277 299 278 292 331 308 312 296 308 286 291 282 310 260 280 288 281 291 287 294 292 272 281 304 342 301 311 317 321 326 305 317 318 322 302 331 287 307 273 240 271 239 255 247 260 258 246 255 270 245 255 269 256 266 238 293 236 246 250 272 241 239 278 269 228 263 262 238 246 221 286 247 296 284 269 259 266 238 247 248 258 263 275 249 233 250 268 273 272 269 319 286 295 321 305 298 283 278 323 302 327 321 310 302 259 282 262 271 245 247 229 244 219 233 241 238 233 231 223 250 249 239 243 251 266 254 255 243 321 259 256 261 268 322 279 312 324 323 358 396 397 356 378 389 358 395 376 362 315 311 279 257 302 298 276 298 276 298 245 276 252 261 228 268 256 249 238 226 248 256 246 269 257 255 283 272 262 281 270 277 302 265 305 275 272 291 267 255 289 258 249 256 274 222 248 281 276 233 230 231 256 258 253 296 296 283 284 267 284 270 258 302 270 256 284 267 255 228 268 293 263 262 263 317 285 250 255 254 275 271 251 269 306 275 285 308 301 271 315 299 311 313 307 261 243 254 243 220 227 288 258 258 268 257 279 300 275 268 282 229 261 241 248 246 252 242 246 217 245 246 241 221 214 218 219 236 245 246 240 243 226 228 252 233 218 236 228 250 221 225 243 225 221 231 230 233 230 263 266 265 257 270 242 247 256 254 244 236 219 224 252 256 247 231 246 244 234 221 228 197 215 237 247 254 216 242 234 227 229 237 227 231 241 236 266 223 274 272 267 253 254 270 261 302 262 286 323 291 307 348 284 324 308 293 305 271 257 251 222 237 256 224 221 226 210 201 242 252 235 229 240 243 241 221 206 249 220 223 249 199 217 208 222 208 222 238 250 255 218 217 216 223 264 253 202 230 288 245 236 261 268 264 256 227 241 210 190 240 237 205 230 239 211 264 235 206 232 228 234 223 248 208 232 236 256 223 208 238 229 201 207 243 202 215 237 210 238 250 250 256 261 259 264 231 261 246 224 213 243 239 218 231 221 253 264 224 232 239 227 230 246 218 235 227 218 261 245 270 237 246 235 246 254 249 264 272 261 263 274 239 266 234 218 209 231 205 206 219 219 201 233 207 201 230 183 198 192 210 230 206 209 212 221 227 204 224 206 190 232 195 182 227 223 207 219 192 221 210 190 192 193 212 181 224 190 223 214 196 229 208 181 200 205 226 224 234 244 233 236 244 269 250 253 226 244 242 226 224 204 210 209 191 205 203 186 232 198 191 172 196 206 193 202 162 233 168 217 176 211 189 194 204 187 194 225 188 194 195 212 189 207 204 209 222 221 200 208 193 180 208 186 190 221 235 221 224 223 193 211 176 202 189 204 179 187 201 174 203 194 195 199 187 194 195 214 224 198 224 218 215 212 204 209 186 208 198 225 203 221 214 222 227 206 178 222 219 211 209 212 213 213 201 242 228 238 208 224 223 204 217 203 216 232 205 200 182 195 194 212 191 196 231 235 209 183 187 168 180 180 181 186 204 186 207 201 232 199 207 211 230 219 252 232 261 240 220 223 199 201 231 226 239 228 236 183 186 208 186 197 204 186 221 195 198 213 169 207 199 206 199 193 170 195 201 186 217 186 182 197 177 187 177 187 189 175 199 183 188 192 184 169 198 208 204 179 191 178 209 183 176 201 193 186 172 195 204 196 196 215 181 200 199 190 174 177 178 175 237 183 230 217 230 227 219 196 195 185 188 207 186 201 213 179 183 202 166 183 204 194 213 181 184 194 181 178 193 223 194 194 203 220 183 209 183 208 207 188 189 209 197 194 197 204 196 193 172 171 189 206 176 194 222 189 186 187 187 167 191 163 187 182 177 181 203 177 194 207 204 205 185 202 202 185 204 187 198 211 176 190 174 165 204 191 190 165 179 196 213 180 171 202 195 149 159 176 193 144 200 200 178 179 194 191 205 204 175 190 182 200 181 196 171 168 164 171 204 178 183 181 167 158 182 181 163 191 148 166 169 184 200 208 184 192 189 224 201 195 204 195 186 191 175 175 179 186 171 167 176 157 165 173 167 178 172 195 184 149 168 152 156 151 181 178 183 199 178 199 188 173 163 176 176 182 177 192 179 177 174 167 180 180 175 167 164 166 169 179 168 154 150 154 164 159 184 193 171 162 175 177 189 166 182 167 176 175 174 175 184 180 170 158 185 164 161 157 180 161 161 167 195 162 160 179 183 175 205 171 172 175 168 158 155 184 173 182 174 164 172 162 185 180 188 163 152 156 145 167 152 175 176 206 163 182 184 186 199 170 144 182 173 168 178 165 176 152 170 151 176 148 177 151 159 182 156 165 154 161 181 149 173 154 155 165 167 161 174 145 167 159 148 158 167 170 179 179 160 188 170 156 170 162 157 158 153 178 157 166 136 154 151</intensities>
			</dataPoints>
		</scan>
	</xrdMeasurement>
</xrdMeasurements>
